# Results for "node" with Id # 604 for search config "initial" at position: x0: 9.5; y0: 6.03; z0: 0
# time DISPLACEMENT_X DISPLACEMENT_Y DISPLACEMENT_Z
0.005 1.4164565191912201e-16 -5.043921220647363e-17 0.0
0.01 -1.3415372366823194e-09 -4.1760352520021506e-11 0.0
0.015 -1.418085881331163e-09 -1.6707572822158493e-10 0.0
0.02 -1.685385139238694e-09 -6.874101615308604e-10 0.0
0.025 -2.0666618633442987e-09 -2.24144333867236e-09 0.0
0.030000000000000002 -1.9713321961681937e-09 -5.862718426411431e-09 0.0
0.035 -1.7244750199064134e-09 -1.3268668717552453e-08 0.0
0.04 -1.1001986519288325e-09 -2.7962939597815215e-08 0.0
0.045 -5.2248424931162045e-11 -5.6690603532399744e-08 0.0
0.049999999999999996 1.580013533764867e-09 -1.1004932781433102e-07 0.0
0.05499999999999999 4.008633337138612e-09 -2.022549071398001e-07 0.0
0.05999999999999999 7.395916108345366e-09 -3.510633524077249e-07 0.0
0.06499999999999999 1.1980823997162632e-08 -5.784476283552785e-07 0.0
0.06999999999999999 1.8077780381091727e-08 -9.113301218657956e-07 0.0
0.075 2.6094989706123064e-08 -1.3806895751492889e-06 0.0
0.08 3.642040464437813e-08 -2.0188382083804357e-06 0.0
0.085 4.9320490305336715e-08 -2.856875845091943e-06 0.0
0.09000000000000001 6.4962012276234e-08 -3.923539888381344e-06 0.0
0.09500000000000001 8.34283810825365e-08 -5.244749523918854e-06 0.0
0.10000000000000002 1.0464093890713208e-07 -6.842214583704607e-06 0.0
0.10500000000000002 1.2817535946761176e-07 -8.73056260973154e-06 0.0
0.11000000000000003 1.5313130620123078e-07 -1.0916981986909499e-05 0.0
0.11500000000000003 1.7826885903140217e-07 -1.340726498848384e-05 0.0
0.12000000000000004 2.0234333138235566e-07 -1.6215291171722258e-05 0.0
0.12500000000000003 2.2444848965694075e-07 -1.93737421963734e-05 0.0
0.13000000000000003 2.4439090138654605e-07 -2.2943962993816583e-05 0.0
0.13500000000000004 2.6272976392555837e-07 -2.7018772073473616e-05 0.0
0.14000000000000004 2.8043693586700094e-07 -3.171912425853842e-05 0.0
0.14500000000000005 2.98814604201749e-07 -3.719523545186156e-05 0.0
0.15000000000000005 3.1978896523826723e-07 -4.3634247379661585e-05 0.0
0.15500000000000005 3.461104412059195e-07 -5.12664856138858e-05 0.0
0.16000000000000006 3.812162473577633e-07 -6.036634171272743e-05 0.0
0.16500000000000006 4.2894749774703087e-07 -7.125232811304097e-05 0.0
0.17000000000000007 4.934807260221583e-07 -8.42915417787624e-05 0.0
0.17500000000000007 5.793863643417484e-07 -9.990747734058594e-05 0.0
0.18000000000000008 6.916028127094477e-07 -0.00011858801473714955 0.0
0.18500000000000008 8.353231706905961e-07 -0.00014089240783232547 0.0
0.19000000000000009 1.015705284624235e-06 -0.00016745497393689604 0.0
0.1950000000000001 1.2377198625884063e-06 -0.0001989932402325996 0.0
0.2000000000000001 1.5071965597371082e-06 -0.00023633768892574627 0.0
0.2050000000000001 1.8329696527011037e-06 -0.0002804745556398909 0.0
0.2100000000000001 2.2280656009570698e-06 -0.0003325661419809668 0.0
0.2150000000000001 2.7087345572217396e-06 -0.0003939285630783582 0.0
0.2200000000000001 3.292365564269839e-06 -0.000465984921305982 0.0
0.22500000000000012 3.995886714360891e-06 -0.0005502280036534154 0.0
0.23000000000000012 4.835471800733207e-06 -0.000648207232191011 0.0
0.23500000000000013 5.8268089481615085e-06 -0.0007615271474542612 0.0
0.24000000000000013 6.985193070683249e-06 -0.0008918438175771617 0.0
0.24500000000000013 8.326035634457443e-06 -0.001040866127233551 0.0
0.2500000000000001 9.866137986925681e-06 -0.0012103617392290697 0.0
0.2550000000000001 1.1624647301240972e-05 -0.0014021496553446053 0.0
0.2600000000000001 1.3622081321691696e-05 -0.0016180437106587445 0.0
0.2650000000000001 1.5877655899676064e-05 -0.0018597533333322956 0.0
0.27000000000000013 1.8406507813733432e-05 -0.0021287791512481767 0.0
0.27500000000000013 2.1217812875167545e-05 -0.002426324180228482 0.0
0.28000000000000014 2.431378531467921e-05 -0.002753224384986651 0.0
0.28500000000000014 2.76898850020783e-05 -0.003109921042891667 0.0
0.29000000000000015 3.1335544232764985e-05 -0.0034964258612485365 0.0
0.29500000000000015 3.5236974259419985e-05 -0.003912305604612624 0.0
0.30000000000000016 3.937992147674904e-05 -0.004356669781655372 0.0
0.30500000000000016 4.3748523545875444e-05 -0.004828076811106756 0.0
0.31000000000000016 4.8321205901968896e-05 -0.005324359514394483 0.0
0.31500000000000017 5.306792354244095e-05 -0.005842461756072301 0.0
0.3200000000000002 5.794924440609578e-05 -0.006378342086532164 0.0
0.3250000000000002 6.291654956958514e-05 -0.0069269363040854025 0.0
0.3300000000000002 6.791443972414197e-05 -0.007482148136188983 0.0
0.3350000000000002 7.288497329933016e-05 -0.008036808697470052 0.0
0.3400000000000002 7.776783509754486e-05 -0.008582581442371957 0.0
0.3450000000000002 8.249638471155934e-05 -0.009109858815251597 0.0
0.3500000000000002 8.699525010881878e-05 -0.009607732627412852 0.0
0.3550000000000002 9.117608934735313e-05 -0.010064129177051418 0.0
0.3600000000000002 9.493743411541445e-05 -0.01046614888201786 0.0
0.3650000000000002 9.81739700815366e-05 -0.010800548777494423 0.0
0.3700000000000002 0.0001007858782806723 -0.011054174618742169 0.0
0.3750000000000002 0.00010268045960666017 -0.011214233364791491 0.0
0.3800000000000002 0.00010377115805375343 -0.011268492043496673 0.0
0.38500000000000023 0.00010397891502499089 -0.011205465465257374 0.0
0.39000000000000024 0.00010323264213062525 -0.011014563702960773 0.0
0.39500000000000024 0.00010146619762334935 -0.010686232170530599 0.0
0.40000000000000024 9.86152216840356e-05 -0.010212149309800788 0.0
0.40500000000000025 9.461502673726816e-05 -0.0095854631728858 0.0
0.41000000000000025 8.939958443136905e-05 -0.008801015934016216 0.0
0.41500000000000026 8.289613698585552e-05 -0.007855324133940836 0.0
0.42000000000000026 7.501832432712251e-05 -0.006746392748045789 0.0
0.42500000000000027 6.56567527029327e-05 -0.0054734068478776415 0.0
0.43000000000000027 5.4670682846087376e-05 -0.00403629076775643 0.0
0.4350000000000003 4.1892354113389915e-05 -0.0024353134233030807 0.0
0.4400000000000003 2.7126640268395784e-05 -0.0006706041572329853 0.0
0.4450000000000003 1.0135167643699424e-05 0.0012585622054572753 0.0
0.4500000000000003 -9.373169433937919e-06 0.0033543632687704195 0.0
0.4550000000000003 -3.174208792914284e-05 0.005620849316088648 0.0
0.4600000000000003 -5.7366161053164084e-05 0.008064283100900443 0.0
0.4650000000000003 -8.669842817476629e-05 0.0106935850499814 0.0
0.4700000000000003 -0.00012027779223073361 0.013521104655226782 0.0
0.4750000000000003 -0.00015878002164539047 0.016563728805491226 0.0
0.4800000000000003 -0.0002030823859031197 0.01984405748690454 0.0
0.4850000000000003 -0.0002543356790438411 0.023391429539137344 0.0
0.4900000000000003 -0.0003140397321793592 0.027242647846579423 0.0
0.49500000000000033 -0.0003841146520085765 0.03144221126121061 0.0
0.5000000000000003 -0.0004669663739117113 0.0360419137663948 0.0
0.5050000000000003 -0.0005655503515610689 0.04109985237728826 0.0
0.5100000000000003 -0.0006834333707064647 0.04667895061104164 0.0
0.5150000000000003 -0.0008248626309026234 0.05284529705197519 0.0
0.5200000000000004 -0.000994848562542351 0.05966657630715792 0.0
0.5250000000000004 -0.0011992642175390486 0.06721072182027131 0.0
0.5300000000000004 -0.001444965458986795 0.07554486853026693 0.0
0.5350000000000004 -0.0017399297693000742 0.08473457758536858 0.0
0.5400000000000004 -0.0020933926017285436 0.09484298293109475 0.0
0.5450000000000004 -0.0025159362056827637 0.10592933175574576 0.0
0.5500000000000004 -0.0030194967538170817 0.1180467809020866 0.0
0.5550000000000004 -0.003617267493236401 0.1312396015221826 0.0
0.5600000000000004 -0.00432347868146708 0.14553999624373745 0.0
0.5650000000000004 -0.005153057780127236 0.1609649983484591 0.0
0.5700000000000004 -0.00612120463207119 0.1775140742948103 0.0
0.5750000000000004 -0.007242939839493784 0.19516811262452205 0.0
0.5800000000000004 -0.008532644266904083 0.21388965046206218 0.0
0.5850000000000004 -0.010003558544557116 0.23362349793842416 0.0
0.5900000000000004 -0.011667208491679213 0.25429714092361655 0.0
0.5950000000000004 -0.013532774040660793 0.27582106071771806 0.0
0.6000000000000004 -0.015606336915515698 0.29808868864606075 0.0
0.6050000000000004 -0.01789005185725121 0.3209763638257193 0.0
0.6100000000000004 -0.02038133532261181 0.3443438594159261 0.0
0.6150000000000004 -0.023072207460908458 0.36803596526985927 0.0
0.6200000000000004 -0.02594892751532074 0.3918853104608946 0.0
0.6250000000000004 -0.028991968631039314 0.41571612576089745 0.0
0.6300000000000004 -0.03217630714948118 0.4393483205007496 0.0
0.6350000000000005 -0.035471968933167786 0.46260137069382723 0.0
0.6400000000000005 -0.03884474824418121 0.4852978072192976 0.0
0.6450000000000005 -0.042257006340451354 0.5072661725878901 0.0
0.6500000000000005 -0.0456685089589295 0.5283435612911924 0.0
0.6550000000000005 -0.049037316934362224 0.5483778959482187 0.0
0.6600000000000005 -0.05232079703411867 0.5672302636702117 0.0
0.6650000000000005 -0.05547687422877174 0.5847777984792731 0.0
0.6700000000000005 -0.05846556829762545 0.6009170702762757 0.0
0.6750000000000005 -0.061250670345044646 0.6155673257250602 0.0
0.6800000000000005 -0.06380137078188608 0.6286730028585136 0.0
0.6850000000000005 -0.06609337362817375 0.6402041325060897 0.0
0.6900000000000005 -0.06810903600750022 0.6501533498140151 0.0
0.6950000000000005 -0.06983628942356446 0.6585293705761616 0.0
0.7000000000000005 -0.0712665733228339 0.6653482495010853 0.0
0.7050000000000005 -0.07239242984605151 0.6706243931232024 0.0
0.7100000000000005 -0.0732055238360023 0.674363390612759 0.0
0.7150000000000005 -0.073695904802674 0.6765591611089354 0.0
0.7200000000000005 -0.07385304956355199 0.6771969708352491 0.0
0.7250000000000005 -0.07366841926948611 0.6762613175538945 0.0
0.7300000000000005 -0.07313879191870164 0.673746552423941 0.0
0.7350000000000005 -0.07226946906079264 0.6696680144660558 0.0
0.7400000000000005 -0.07107627729679827 0.6640708338655633 0.0
0.7450000000000006 -0.06958576591020313 0.6570345423686983 0.0
0.7500000000000006 -0.06783356704999437 0.6486729077800816 0.0
0.7550000000000006 -0.0658615752321433 0.6391299309393862 0.0
0.7600000000000006 -0.06371484306014794 0.6285738380235448 0.0
0.7650000000000006 -0.061438970318361937 0.6171910562957102 0.0
0.7700000000000006 -0.05907854432666115 0.6051821085118843 0.0
0.7750000000000006 -0.05667695356679776 0.5927611410855628 0.0
0.7800000000000006 -0.054277521616488834 0.5801596031175307 0.0
0.7850000000000006 -0.051925421695408536 0.5676333409975203 0.0
0.7900000000000006 -0.049669449615376046 0.5554706616936984 0.0
0.7950000000000006 -0.047563144008398915 0.5439995666987689 0.0
0.8000000000000006 -0.045664425219383506 0.5335897012651937 0.0
0.8050000000000006 -0.04403354121089183 0.5246452940787542 0.0
0.8100000000000006 -0.04273070438677855 0.5175924650974095 0.0
0.8150000000000006 -0.04181432459567076 0.5128629359048917 0.0
0.8200000000000006 -0.04134034850341922 0.5108762824776598 0.0
0.8250000000000006 -0.04136335680504409 0.5120252944429917 0.0
0.8300000000000006 -0.04193926595335892 0.5166667819370768 0.0
0.8350000000000006 -0.04312904039348202 0.5251177019561158 0.0
0.8400000000000006 -0.04500266418433595 0.5376545435102217 0.0
0.8450000000000006 -0.04764220180862195 0.5545110164321786 0.0
0.8500000000000006 -0.05114285568864629 0.5758692205928527 0.0
0.8550000000000006 -0.05561142816939787 0.6018431375299632 0.0
0.8600000000000007 -0.06116189029281698 0.6324569634581164 0.0
0.8650000000000007 -0.06790811632526267 0.6676232943727155 0.0
0.8700000000000007 -0.07595414235660283 0.7071257042137162 0.0
0.8750000000000007 -0.08538243215116352 0.7506079464926854 0.0
0.8800000000000007 -0.0962405874797294 0.7975696634275573 0.0
0.8850000000000007 -0.108526818025893 0.8473671003683 0.0
0.8900000000000007 -0.12217435413735284 0.8992167855260853 0.0
0.8950000000000007 -0.13703530762618302 0.952201470346209 0.0
0.9000000000000007 -0.15286574299009623 1.005280689977701 0.0
0.9050000000000007 -0.16931533075877434 1.05731022878114 0.0
0.9100000000000007 -0.18592569228552489 1.1070731635133588 0.0
0.9150000000000007 -0.20214144968293257 1.1533226995931047 0.0
0.9200000000000007 -0.21733666150004 1.194834777619925 0.0
0.9250000000000007 -0.23085609431675969 1.2304653182597476 0.0
0.9300000000000007 -0.24206705033565853 1.2592056190181293 0.0
0.9350000000000007 -0.2504142980841892 1.2802289156430933 0.0
0.9400000000000007 -0.2554700124720626 1.2929243522712934 0.0
0.9450000000000007 -0.25697171168660304 1.2969179838191673 0.0
0.9500000000000007 -0.2548439164843733 1.2920824443528842 0.0
0.9550000000000007 -0.2492010582766671 1.2785356055992165 0.0
0.9600000000000007 -0.24033179521793901 1.2566282751168154 0.0
0.9650000000000007 -0.22866888838693913 1.2269245247001295 0.0
0.9700000000000008 -0.2147513859558569 1.19017895671084 0.0
0.9750000000000008 -0.19918335496462128 1.1473133878442203 0.0
0.9800000000000008 -0.18259045403030963 1.0993856309398213 0.0
0.9850000000000008 -0.1655767439551756 1.047547356365954 0.0
0.9900000000000008 -0.14868717056490532 0.9929941071226794 0.0
0.9950000000000008 -0.13238076125158654 0.936914414358404 0.0
1.0000000000000007 -0.11701395603455722 0.8804368818692438 0.0
1.0050000000000006 -0.10283236806793211 0.8245715652656798 0.0
1.0100000000000005 -0.08997285279463255 0.7701559825962551 0.0
1.0150000000000003 -0.07847657160463506 0.7178217520670116 0.0
1.0200000000000002 -0.06830957607748911 0.6679874578984744 0.0
1.0250000000000001 -0.05938516900613983 0.6208690806567417 0.0
1.03 -0.05158382630885975 0.576498172502723 0.0
1.035 -0.044769377083002944 0.5347450958021722 0.0
1.0399999999999998 -0.03880142374623445 0.49534621464229506 0.0
1.0449999999999997 -0.03354374990839348 0.45792860958702275 0.0
1.0499999999999996 -0.028869016529232187 0.4220256546793912 0.0
1.0549999999999995 -0.024661109932576277 0.3870836184610599 0.0
1.0599999999999994 -0.02081734814677555 0.3524661562066317 0.0
1.0649999999999993 -0.017252459461171214 0.3174652095217293 0.0
1.0699999999999992 -0.013904599314567504 0.28131966117360757 0.0
1.074999999999999 -0.010742934277791001 0.24323919080747616 0.0
1.079999999999999 -0.00777624332061788 0.2024327894155168 0.0
1.0849999999999989 -0.00506205590591604 0.1581449447428942 0.0
1.0899999999999987 -0.0027148134718353676 0.1096983885369957 0.0
1.0949999999999986 -0.0009106883736676437 0.05653822879943747 0.0
1.0999999999999985 0.00011306765107978777 -0.001724715033048378 0.0
1.1049999999999984 6.608349652364515e-05 -0.06526717176682517 0.0
1.1099999999999983 -0.0013773485950076482 -0.13399526594545214 0.0
1.1149999999999982 -0.004546804631830848 -0.2074759658057291 0.0
1.119999999999998 -0.00972698075820822 -0.284863746949359 0.0
1.124999999999998 -0.017091280336556235 -0.3648415430168504 0.0
1.129999999999998 -0.026625555591596413 -0.44560216589573054 0.0
1.1349999999999978 -0.03806213941144836 -0.5249081658604314 0.0
1.1399999999999977 -0.050852251898572585 -0.6002421157647955 0.0
1.1449999999999976 -0.06419229754277275 -0.6689978347348009 0.0
1.1499999999999975 -0.07709564928783764 -0.7286448526619334 0.0
1.1549999999999974 -0.08848687131892258 -0.7768292722080259 0.0
1.1599999999999973 -0.09730137592385704 -0.8114211227941894 0.0
1.1649999999999971 -0.10259175349824931 -0.8305556690699433 0.0
1.169999999999997 -0.10364492342029884 -0.8326963354327462 0.0
1.174999999999997 -0.10009793293506031 -0.8167020994201056 0.0
1.1799999999999968 -0.09202949451926415 -0.7818793382613788 0.0
1.1849999999999967 -0.0800055037727707 -0.7280177799722036 0.0
1.1899999999999966 -0.06506233580697714 -0.6554111668758953 0.0
1.1949999999999965 -0.04862550994287663 -0.5648622386465463 0.0
1.1999999999999964 -0.03237462031332832 -0.45766686978252685 0.0
1.2049999999999963 -0.01807903840784475 -0.33557656416922577 0.0
1.2099999999999962 -0.007434585957803808 -0.20076187960021188 0.0
1.214999999999996 -0.0019185796592186034 -0.05580295756222569 0.0
1.219999999999996 -0.002661662322551905 0.0962983688201952 0.0
1.2249999999999959 -0.010328136955539434 0.25211312207204933 0.0
1.2299999999999958 -0.02500295113784062 0.4078080085080717 0.0
1.2349999999999957 -0.04609585339749182 0.5592153296872304 0.0
1.2399999999999956 -0.07228996282585978 0.7019753785280598 0.0
1.2449999999999954 -0.10157455655305446 0.8317611645393301 0.0
1.2499999999999953 -0.1313974967489705 0.9445616918099629 0.0
1.2549999999999952 -0.15894037416054782 1.0369543404037673 0.0
1.2599999999999951 -0.1814775343916561 1.1063004479654883 0.0
1.264999999999995 -0.1967494681493337 1.1508364425426143 0.0
1.269999999999995 -0.20327556756163598 1.169678747575217 0.0
1.2749999999999948 -0.20054696928546645 1.1627799272549393 0.0
1.2799999999999947 -0.18906655642470044 1.130870717652895 0.0
1.2849999999999946 -0.17023540313156812 1.0754119689347768 0.0
1.2899999999999945 -0.14611662568546016 0.9985586380522153 0.0
1.2949999999999944 -0.11912928263258941 0.9031296056041148 0.0
1.2999999999999943 -0.0917211396738093 0.7925324498542431 0.0
1.3049999999999942 -0.06607403914539409 0.6705999225774583 0.0
1.309999999999994 -0.043896500324638 0.5413705538646242 0.0
1.314999999999994 -0.026323585505289678 0.4088855809147617 0.0
1.3199999999999938 -0.013904932515988207 0.2770668552568888 0.0
1.3249999999999937 -0.006641067324015116 0.14966754424012116 0.0
1.3299999999999936 -0.004040624663328848 0.030222661996783223 0.0
1.3349999999999935 -0.005200147965407273 -0.07804243750911266 0.0
1.3399999999999934 -0.008918148710537041 -0.17231289420502055 0.0
1.3449999999999933 -0.013846235801766707 -0.2502760586142785 0.0
1.3499999999999932 -0.01867177343904057 -0.310229174245781 0.0
1.354999999999993 -0.02231019999755111 -0.3512001415655375 0.0
1.359999999999993 -0.024063349938335477 -0.37303522589315374 0.0
1.3649999999999929 -0.02369773617862784 -0.376417406430382 0.0
1.3699999999999928 -0.02142110595001832 -0.3628152378202506 0.0
1.3749999999999927 -0.017770074459148605 -0.3343802445668403 0.0
1.3799999999999926 -0.013445448825675027 -0.29379824365456264 0.0
1.3849999999999925 -0.009143715770383858 -0.24409420066063064 0.0
1.3899999999999924 -0.005429288668086589 -0.18842271521274487 0.0
1.3949999999999922 -0.0026674276956411345 -0.12990158271692573 0.0
1.3999999999999921 -0.0010096340518768105 -0.07151779044120408 0.0
1.404999999999992 -0.0004115004984928929 -0.016082547789743627 0.0
1.409999999999992 -0.0006683806783005132 0.033805295847697536 0.0
1.4149999999999918 -0.0014644197385280122 0.07581263394163613 0.0
1.4199999999999917 -0.0024354912868701072 0.10794615251692752 0.0
1.4249999999999916 -0.003244284131538549 0.12864928757468078 0.0
1.4299999999999915 -0.0036575962443658495 0.1369196552358296 0.0
1.4349999999999914 -0.0036054941522189994 0.13241900385806346 0.0
1.4399999999999913 -0.0031994648327588644 0.11553475189819896 0.0
1.4449999999999912 -0.0026994105513399153 0.0873706507383994 0.0
1.449999999999991 -0.0024400356434670658 0.049667704674310115 0.0
1.454999999999991 -0.0027420479973182866 0.004680548271580384 0.0
1.4599999999999909 -0.003834210139791866 -0.04496798963149986 0.0
1.4649999999999908 -0.005802229746854066 -0.09644271348733739 0.0
1.4699999999999906 -0.008567994284730356 -0.14684404267024295 0.0
1.4749999999999905 -0.011894425840048017 -0.1933306086705588 0.0
1.4799999999999904 -0.015409783918109907 -0.23320814064566178 0.0
1.4849999999999903 -0.018648371892897992 -0.26398806334401764 0.0
1.4899999999999902 -0.02110897883146618 -0.28342771232095304 0.0
1.4949999999999901 -0.02233528666152862 -0.289579031409259 0.0
1.49999999999999 -0.022018296267299498 -0.28087447373886243 0.0
1.50499999999999 -0.020104020987982005 -0.2562449359887278 0.0
1.5099999999999898 -0.016873023218938816 -0.21523269462077024 0.0
1.5149999999999897 -0.01295690249527287 -0.15805338474682004 0.0
1.5199999999999896 -0.00927818684933347 -0.08559408124409673 0.0
1.5249999999999895 -0.006926341489773083 0.0006485481150927783 0.0
1.5299999999999894 -0.007002286675550014 0.09868508765506517 0.0
